,Temp,Grid,Mixture Fract
0,300.0,0.0,1.0
1,300.0000000012722,0.000425531914893617,1.0
2,300.0000000015034,0.000851063829787234,1.0
3,300.0000000015116,0.001276595744680851,1.0
4,300.0000000015108,0.001702127659574468,1.0
5,300.00000000150993,0.002127659574468085,1.0
6,300.00000000150914,0.002553191489361702,1.0
7,300.00000000150834,0.0029787234042553193,1.0
8,300.00000000150754,0.003404255319148936,1.0
9,300.00000000150686,0.003829787234042553,1.0
10,300.0000000015061,0.00425531914893617,1.0
11,300.0000000015053,0.004680851063829788,1.0
12,300.00000000150465,0.005106382978723404,1.0
13,300.00000000150385,0.005531914893617021,1.0
14,300.0000000015031,0.005957446808510639,1.0
15,300.00000000150237,0.006382978723404255,1.0
16,300.00000000150413,0.006808510638297872,1.0
17,300.00000000155813,0.00723404255319149,1.0
18,300.0000000026626,0.007659574468085106,1.0
19,300.0000000624599,0.008085106382978723,1.0
20,300.0000011314989,0.008297872340425533,1.0
21,300.0000236405477,0.00851063829787234,1.0
22,300.0004246396084,0.008723404255319148,1.0
23,300.00265710535933,0.008829787234042553,0.9999511403997218
24,300.01805005099504,0.008936170212765958,0.9995964465116743
25,300.1106759999709,0.009042553191489363,0.9984296734067876
26,300.30120277418587,0.009095744680851066,0.9970612634414117
27,300.8439133724035,0.009148936170212767,0.9946008233780421
28,301.4467268223863,0.009175531914893618,0.9927121102000189
29,302.5048410237496,0.009202127659574469,0.9901876546049783
30,304.2990068046463,0.00922872340425532,0.9868639580283195
31,307.23151305738554,0.00925531914893617,0.9825569180595058
32,311.8395877745318,0.009281914893617021,0.9770705911660802
33,318.7787511688129,0.009308510638297872,0.9702123284952184
34,328.7553722899805,0.009335106382978724,0.9618128059759112
35,342.40015150205414,0.009361702127659575,0.9517452805845973
36,350.80841713097306,0.009375000000000001,0.9459809276127232
37,360.3549703477389,0.009388297872340426,0.9397373247469194
38,371.0359394988168,0.009401595744680852,0.9330114824756552
39,382.82098718372225,0.009414893617021278,0.9258032196986771
40,389.11862034131724,0.00942154255319149,0.9219868127888053
41,395.68037825191396,0.009428191489361703,0.9180452500413128
42,402.4969507918954,0.009434840425531915,0.9139790191637057
43,409.5581750612916,0.00944148936170213,0.9097886011491707
44,416.8537154305707,0.009448138297872343,0.9054746019586162
45,424.3728076914461,0.009454787234042555,0.9010375936947149
46,432.104845250592,0.009461436170212768,0.8964782473179002
47,440.03911661989963,0.00946808510638298,0.8917971846302948
48,448.1652874590635,0.009474734042553192,0.8869951098930421
49,456.473132525186,0.009481382978723404,0.8820726730476479
50,473.59291839762506,0.00949468085106383,0.8719636835363888
51,491.311954096282,0.009507978723404257,0.8613989866877915
52,509.56507148533746,0.009521276595744681,0.8503841877325213
53,528.2928119642778,0.009534574468085106,0.8389252516594873
54,547.4409088965019,0.009547872340425532,0.8270286488334573
55,557.1556539526566,0.009554521276595746,0.8208656049204321
56,566.9590108257522,0.009561170212765958,0.8145927824232283
57,576.8452615030525,0.00956781914893617,0.8082112782350904
58,586.8088550820412,0.009574468085106383,0.8017222141666165
59,596.8444910789688,0.009581117021276595,0.7951268155649408
60,606.947013143054,0.009587765957446807,0.7884263456352645
61,617.1114782177465,0.00959441489361702,0.7816221761023184
62,627.3330713268829,0.009601063829787234,0.7747157276931037
63,637.6071634859978,0.009607712765957448,0.7677085332065136
64,647.9292453608489,0.00961436170212766,0.7606021840173179
65,658.2949753500008,0.009621010638297872,0.7533983865537086
66,668.7001281068531,0.009627659574468084,0.7460989153125821
67,679.1406312095904,0.009634308510638297,0.7387056641766122
68,689.6125226037216,0.009640957446808509,0.7312206062884423
69,700.111974091825,0.009647606382978721,0.7236458406514696
70,710.6352552977651,0.009654255319148935,0.7159835574851697
71,721.1787477220197,0.00966090425531915,0.7082360786663545
72,731.7389183642024,0.009667553191489361,0.7004058261047871
73,742.3123299595085,0.009674202127659574,0.6924953548978803
74,752.8956258711041,0.009680851063829786,0.6845073238220242
75,763.485538187964,0.009687499999999998,0.676444522022836
76,774.0788822020681,0.00969414893617021,0.6683098422308933
77,784.672561502516,0.009700797872340423,0.6601063025331527
78,795.263568860423,0.009707446808510637,0.6518370230049826
79,805.8489862958796,0.00971409574468085,0.6435052436859833
80,816.425989183567,0.009720744680851063,0.6351143046197901
81,826.9918403550588,0.009727393617021275,0.6266676602395046
82,837.5438963836185,0.009734042553191487,0.6181688620321645
83,858.6003501213695,0.009747340425531914,0.6011213065574437
84,879.5708691964118,0.00976063829787234,0.5839100335839503
85,921.2112046748839,0.00978723404255319,0.549453419658315
86,962.3185067160949,0.009813829787234041,0.5147195960523988
87,1002.7808386677979,0.009840425531914894,0.47998296936750456
88,1022.7301625127736,0.009853723404255318,0.46257720777616784
89,1042.4861650704663,0.009867021276595745,0.4452835890178101
90,1062.0416358599668,0.009880319148936171,0.42813895966865306
91,1081.391919923564,0.009893617021276595,0.4111812172475585
92,1100.5357226314122,0.00990691489361702,0.39444926644649536
93,1119.4760871165333,0.009920212765957446,0.377983632409785
94,1138.2214731185866,0.009933510638297872,0.36182684329717424
95,1156.7868066043702,0.009946808510638297,0.3460237685162745
96,1175.1943355056817,0.009960106382978721,0.3306216677668903
97,1193.4741076407533,0.009973404255319148,0.3156698388585451
98,1202.5800039765636,0.009980053191489362,0.3083626557981881
99,1211.6686960344882,0.009986702127659574,0.3011884520030722
100,1220.7459400095984,0.009993351063829786,0.2941535015388165
101,1229.8178321227092,0.009999999999999998,0.2872639380185194
102,1238.8907364254999,0.01000664893617021,0.2805256735214639
103,1247.971204366198,0.010013297872340423,0.27394432417072606
104,1257.0658860551948,0.010019946808510635,0.2675251181387495
105,1266.1814207406617,0.01002659574468085,0.26127281298682437
106,1275.3243341350455,0.010033244680851063,0.2551916007167283
107,1284.500903902944,0.010039893617021275,0.24928502507287634
108,1293.7170477097677,0.010046542553191488,0.2435558928296894
109,1302.9781704569637,0.0100531914893617,0.23800620041862902
110,1312.289049710385,0.010059840425531912,0.2326370615154953
111,1321.6536749008494,0.010066489361702126,0.22744865303963988
112,1331.0751403714162,0.01007313829787234,0.2224401694527187
113,1340.5554922944077,0.010079787234042552,0.21760979835733496
114,1350.0956456812148,0.010086436170212765,0.21295471170125835
115,1359.6952625645558,0.010093085106382977,0.20847108070762418
116,1369.3527171513356,0.01009973404255319,0.2041541130060152
117,1379.0650364434848,0.010106382978723403,0.1999981147366625
118,1388.8279428823546,0.010113031914893617,0.19599657938898424
119,1398.6358893757413,0.01011968085106383,0.19214230011414596
120,1408.4822027141352,0.010126329787234042,0.18842750891468849
121,1418.3592293569745,0.010132978723404254,0.18484403261654367
122,1428.2585768407478,0.010139627659574466,0.1813834686190364
123,1438.1713499769276,0.01014627659574468,0.1780373633930391
124,1458.0098971420869,0.010159574468085106,0.17168190988206297
125,1467.9119760020508,0.010166223404255319,0.1686301970173401
126,1477.7948430998433,0.010172872340425531,0.16566276939783842
127,1487.6515483732344,0.010179521276595743,0.16277340591974127
128,1497.4761111413327,0.010186170212765957,0.15995662665342084
129,1517.0144572207732,0.010199468085106383,0.15454231357672368
130,1536.382129922497,0.010212765957446808,0.14936872909880403
131,1555.5687033536592,0.010226063829787232,0.1444182546647136
132,1574.5713858534718,0.010239361702127659,0.1396800096760162
133,1593.3905240980464,0.010252659574468085,0.13514736589703658
134,1612.0256093640025,0.01026595744680851,0.1308159842866846
135,1630.4718291151012,0.010279255319148936,0.12668244468642087
136,1648.7170239895177,0.010292553191489362,0.12274334858485139
137,1666.7390814060602,0.010305851063829786,0.11899475557459509
138,1684.5039725774113,0.010319148936170213,0.11543185917132744
139,1701.9646462014355,0.010332446808510639,0.11204884551789662
140,1719.0608641615024,0.010345744680851063,0.10883889484179403
141,1735.7199085320785,0.01035904255319149,0.10579429161688997
142,1751.8579753146325,0.010372340425531916,0.10290661380977155
143,1767.3820180450102,0.01038563829787234,0.10016697442870733
144,1774.8747894696844,0.010392287234042553,0.09884674063795351
145,1782.1753044955508,0.010398936170212767,0.0975605149897676
146,1789.270026720649,0.01040558510638298,0.09630714597611462
147,1796.1452117888903,0.010412234042553193,0.09508550109768181
148,1802.786894671547,0.010418882978723405,0.0938944731982283
149,1809.1809577683484,0.010425531914893617,0.09273298476717996
150,1815.3130974717012,0.01043218085106383,0.09159999162246946
151,1821.1688786723525,0.010438829787234042,0.09049448470000424
152,1826.733679989295,0.010445478723404254,0.08941549119885098
153,1831.992739882047,0.010452127659574468,0.08836207399913895
154,1836.931091354878,0.010458776595744682,0.0873333305144978
155,1841.5336158307339,0.010465425531914894,0.08632839006742325
156,1845.7849898055729,0.010472074468085107,0.08534641081241297
157,1849.6697749318923,0.010478723404255319,0.08438657540981555
158,1853.1724113180137,0.010485372340425531,0.08344808630603488
159,1856.277383128238,0.010492021276595744,0.08253015991830319
160,1858.9693010715455,0.010498670212765956,0.08163202044467986
161,1861.2331851763206,0.01050531914893617,0.08075289274728052
162,1863.0546735836456,0.010511968085106384,0.07989199501043351
163,1864.4204476849359,0.010518617021276596,0.07904853088832278
164,1865.3185753001592,0.010525265957446808,0.0782216819760378
165,1865.7390596265052,0.01053191489361702,0.07741060067677073
166,1865.6742684679057,0.010538563829787233,0.07661440449518295
167,1865.1195213546293,0.010545212765957445,0.0758321721105329
168,1864.0734869452776,0.010551861702127657,0.07506294229577236
169,1862.5386583411703,0.010558510638297871,0.07430571598441497
170,1860.52155482543,0.010565159574468085,0.0735594622011232
171,1858.0329174913772,0.010571808510638298,0.07282312764154225
172,1855.0875721112031,0.01057845744680851,0.07209564988928283
173,1851.7042392352566,0.010585106382978722,0.0713759732771424
174,1847.9050161394198,0.010591755319148934,0.07066306662514182
175,1843.7148254174226,0.010598404255319148,0.06995594130293135
176,1839.160615098265,0.010605053191489362,0.0692536685348556
177,1834.2706033979218,0.010611702127659575,0.06855539444881675
178,1829.0734005361944,0.010618351063829787,0.06786035210320635
179,1823.5972701287233,0.010624999999999999,0.06716786963177485
180,1817.8693869004398,0.010631648936170211,0.06647737443786886
181,1811.9152983311635,0.010638297872340425,0.06578839339939221
182,1805.7584539728766,0.01064494680851064,0.06510054964505188
183,1799.4199486483747,0.010651595744680852,0.06441355644396922
184,1792.9183467713262,0.010658244680851064,0.06372720903652394
185,1786.269683843365,0.010664893617021276,0.063041375124957
186,1779.4875222316518,0.010671542553191488,0.06235598475518916
187,1772.5831263299845,0.010678191489361702,0.06167102017882183
188,1765.5656515240362,0.010684840425531916,0.06098650614359566
189,1758.4423981295333,0.010691489361702129,0.06030250096046716
190,1743.8955797007761,0.010704787234042553,0.05893372303342964
191,1728.9782245368035,0.01071808510638298,0.05756818164499759
192,1713.7035900326625,0.010731382978723406,0.056206902690999774
193,1698.0751824855865,0.01074468085106383,0.05485093733334863
194,1682.0905347883834,0.010757978723404255,0.05350129937203728
195,1665.743758755315,0.01077127659574468,0.05215893317853988
196,1631.9409981701333,0.010797872340425532,0.04948605145076387
197,1596.609064688073,0.010824468085106382,0.046851042887581795
198,1559.6897764813823,0.010851063829787233,0.04425856643096493
199,1521.1364623936036,0.010877659574468084,0.041712529167096155
200,1480.9166486035683,0.010904255319148935,0.03921635638531795
201,1439.0132911110713,0.010930851063829787,0.03677322403188062
202,1395.4252704701637,0.010957446808510638,0.03438625613496438
203,1303.240825068694,0.011010638297872341,0.029717003599725993
204,1254.8905020401921,0.011037234042553192,0.027517643610304503
205,1205.0842794829573,0.011063829787234043,0.025387092615734512
206,1153.940398412268,0.011090425531914893,0.023328654077648395
207,1101.613646058883,0.011117021276595744,0.02134534678846951
208,1048.3025528330995,0.011143617021276597,0.01943982962271617
209,994.2577408182342,0.011170212765957447,0.017614383420236975
210,939.789366338715,0.011196808510638298,0.015871012305572967
211,912.5329706826982,0.011210106382978724,0.015042328383249651
212,885.314591855712,0.01122340425531915,0.01423489922510647
213,858.1894445565938,0.011236702127659575,0.013448980537858427
214,831.2160102477309,0.011250000000000001,0.012684853455389491
215,804.45569340688,0.011263297872340428,0.011942827697351093
216,791.1790997356742,0.01126994680851064,0.011583098017827444
217,777.9808838385648,0.011276595744680852,0.011229009608144318
218,764.8693927434567,0.011283244680851064,0.010880607570735121
219,751.8529874976351,0.011289893617021277,0.010537938039804079
220,738.9401263041722,0.011296542553191489,0.010201048430201646
221,726.1392085908842,0.011303191489361703,0.009869986658805561
222,713.4586876762695,0.011309840425531917,0.009544801386224195
223,700.9068791428143,0.011316489361702129,0.009225541146410027
224,676.2145701843934,0.011329787234042554,0.008599623352266324
225,652.125718295639,0.011343085106382978,0.007998063850226566
226,628.7011259435453,0.011356382978723404,0.007421222560208994
227,617.2596895853053,0.011363031914893618,0.0071446247382245965
228,606.008590852156,0.01136968085106383,0.006874304798793528
229,594.9545902710482,0.011376329787234043,0.006610298000543069
230,584.1039569067976,0.011382978723404255,0.0063526360095563774
231,573.4628602404546,0.011389627659574467,0.006101347338015548
232,563.0369253177715,0.01139627659574468,0.005856456252434201
233,552.8316754785445,0.011402925531914892,0.005617983228913819
234,542.8520416882325,0.011409574468085106,0.005385943864338445
235,523.5808485870817,0.011422872340425532,0.00493731183277288
236,505.2451410760265,0.011436170212765957,0.004514506542847619
237,487.8708841535597,0.011449468085106383,0.004117443479883739
238,471.4776477729208,0.011462765957446809,0.003745937658329982
239,456.07825562775514,0.011476063829787234,0.0033996958650158145
240,441.67845702408476,0.01148936170212766,0.0030783103078825323
241,415.8030872990195,0.01151595744680851,0.0024991523474305766
242,393.6399965195082,0.011542553191489363,0.0020103821277388054
243,374.9992957490447,0.011569148936170214,0.0016046945229153094
244,359.60374723980743,0.011595744680851065,0.0012735205737624937
245,336.8391993930804,0.011648936170212766,0.0007847713105571286
246,322.02987598712434,0.011702127659574468,0.0004731782434493622
247,312.8410396262369,0.01175531914893617,0.0002822236461743516
248,307.3643053200432,0.011808510638297872,0.00016877321721202036
249,304.20975744478744,0.011861702127659576,0.00010287468150636945
250,302.44579014558036,0.011914893617021277,6.513113659325127e-05
251,300.88135506535514,0.01202127659574468,2.9404570680864715e-05
252,300.331430397816,0.012127659574468085,1.4874977620193593e-05
253,300.0577288580268,0.012340425531914893,4.936376729807769e-06
254,300.0093810822448,0.012553191489361702,1.8212765829911344e-06
255,300.0016801245115,0.01276595744680851,7.421610706264363e-07
256,300.0001107642004,0.013191489361702127,1.4873458631038283e-07
257,300.0000064047373,0.013617021276595745,2.72374956977471e-08
258,300.0000003320946,0.014042553191489362,4.577279672836912e-09
259,300.00000001570754,0.01446808510638298,7.123170588981092e-10
260,300.000000000687,0.014893617021276596,1.0363730301516179e-10
261,300.00000000002814,0.015319148936170212,1.4221537083503556e-11
262,300.000000000001,0.01574468085106383,1.855021821456072e-12
263,300.00000000000006,0.016170212765957447,2.315984251688601e-13
264,300.0,0.016595744680851062,2.78443120800775e-14
265,300.0,0.01702127659574468,3.2422529498406738e-15
266,300.0,0.017446808510638297,3.828202278125133e-16
267,300.0,0.017872340425531916,3.9063288552297276e-17
268,300.0,0.01829787234042553,7.812657710459455e-18
269,300.0,0.01872340425531915,0.0
270,300.0,0.019148936170212766,0.0
271,300.0,0.01957446808510638,0.0
272,300.0,0.02,0.0
